# OpenSignals Text File Format
# {"CC:78:AB:5E:9D:17":{"sensor":["RAW"],"device name":"CC:78:AB:5E:9D:17","column":["nSeq","I1","I2","O1","O2","A1"],"sync interval":2,"time":"14:58:12","comments":"","device connection":"BLECC:78:AB:5E:9D:17","channels":[1],"date":"2022-05-11","mode":0,"digital IO":[0,0,1,1],"firmware version":0,"device":"bitalino_rev","position":0,"sampling rate":100,"label":["A1"],"resolution":[10],"special":[{}]}}
# EndOfHeader
0	0	0	0	0	498
1	0	0	0	0	516
2	0	0	0	0	521
3	0	0	0	0	512
4	0	0	0	0	511
5	0	0	0	0	516
6	0	0	0	0	543
7	0	0	0	0	508
8	0	0	0	0	521
9	0	0	0	0	516
10	0	0	0	0	507
11	0	0	0	0	512
12	0	0	0	0	521
13	0	0	0	0	504
14	0	0	0	0	529
15	0	0	0	0	506
0	0	0	0	0	504
1	0	0	0	0	561
2	0	0	0	0	497
3	0	0	0	0	516
4	0	0	0	0	527
5	0	0	0	0	517
6	0	0	0	0	518
7	0	0	0	0	523
8	0	0	0	0	521
9	0	0	0	0	515
10	0	0	0	0	512
11	0	0	0	0	513
12	0	0	0	0	527
13	0	0	0	0	535
14	0	0	0	0	507
15	0	0	0	0	512
0	0	0	0	0	519
1	0	0	0	0	517
2	0	0	0	0	519
3	0	0	0	0	516
4	0	0	0	0	518
5	0	0	0	0	532
6	0	0	0	0	506
7	0	0	0	0	506
8	0	0	0	0	523
9	0	0	0	0	510
10	0	0	0	0	518
11	0	0	0	0	510
12	0	0	0	0	513
13	0	0	0	0	515
14	0	0	0	0	511
15	0	0	0	0	521
0	0	0	0	0	512
1	0	0	0	0	526
2	0	0	0	0	508
3	0	0	0	0	508
4	0	0	0	0	528
5	0	0	0	0	502
6	0	0	0	0	511
7	0	0	0	0	519
8	0	0	0	0	505
9	0	0	0	0	521
10	0	0	0	0	505
11	0	0	0	0	539
12	0	0	0	0	518
13	0	0	0	0	509
14	0	0	0	0	502
15	0	0	0	0	537
0	0	0	0	0	496
1	0	0	0	0	496
2	0	0	0	0	536
3	0	0	0	0	505
4	0	0	0	0	523
5	0	0	0	0	527
6	0	0	0	0	502
7	0	0	0	0	527
8	0	0	0	0	504
9	0	0	0	0	501
10	0	0	0	0	530
11	0	0	0	0	510
12	0	0	0	0	511
13	0	0	0	0	535
14	0	0	0	0	530
15	0	0	0	0	515
0	0	0	0	0	516
1	0	0	0	0	509
2	0	0	0	0	508
3	0	0	0	0	526
4	0	0	0	0	541
5	0	0	0	0	505
6	0	0	0	0	511
7	0	0	0	0	514
8	0	0	0	0	513
9	0	0	0	0	511
10	0	0	0	0	506
11	0	0	0	0	530
12	0	0	0	0	516
13	0	0	0	0	521
14	0	0	0	0	515
15	0	0	0	0	517
0	0	0	0	0	503
1	0	0	0	0	537
2	0	0	0	0	512
3	0	0	0	0	504
4	0	0	0	0	512
5	0	0	0	0	534
6	0	0	0	0	509
7	0	0	0	0	514
8	0	0	0	0	506
9	0	0	0	0	526
10	0	0	0	0	508
11	0	0	0	0	519
12	0	0	0	0	511
13	0	0	0	0	499
14	0	0	0	0	522
15	0	0	0	0	517
0	0	0	0	0	503
1	0	0	0	0	541
2	0	0	0	0	490
3	0	0	0	0	504
4	0	0	0	0	499
5	0	0	0	0	508
6	0	0	0	0	534
7	0	0	0	0	508
8	0	0	0	0	523
9	0	0	0	0	498
10	0	0	0	0	560
11	0	0	0	0	492
12	0	0	0	0	551
13	0	0	0	0	519
14	0	0	0	0	507
15	0	0	0	0	511
0	0	0	0	0	507
1	0	0	0	0	518
2	0	0	0	0	511
3	0	0	0	0	502
4	0	0	0	0	555
5	0	0	0	0	483
6	0	0	0	0	499
7	0	0	0	0	601
8	0	0	0	0	480
9	0	0	0	0	484
10	0	0	0	0	568
11	0	0	0	0	482
12	0	0	0	0	526
13	0	0	0	0	575
14	0	0	0	0	455
15	0	0	0	0	578
0	0	0	0	0	545
1	0	0	0	0	431
2	0	0	0	0	590
3	0	0	0	0	491
4	0	0	0	0	474
5	0	0	0	0	564
6	0	0	0	0	484
7	0	0	0	0	504
8	0	0	0	0	513
9	0	0	0	0	574
10	0	0	0	0	488
11	0	0	0	0	520
12	0	0	0	0	559
13	0	0	0	0	455
14	0	0	0	0	547
15	0	0	0	0	464
0	0	0	0	0	564
1	0	0	0	0	572
2	0	0	0	0	419
3	0	0	0	0	529
4	0	0	0	0	556
5	0	0	0	0	466
6	0	0	0	0	547
7	0	0	0	0	345
8	0	0	0	0	796
9	0	0	0	0	524
10	0	0	0	0	314
11	0	0	0	0	614
12	0	0	0	0	704
13	0	0	0	0	326
14	0	0	0	0	478
15	0	0	0	0	482
0	0	0	0	0	412
1	0	0	0	0	585
2	0	0	0	0	395
3	0	0	0	0	659
4	0	0	0	0	615
5	0	0	0	0	502
6	0	0	0	0	876
7	0	0	0	0	122
8	0	0	0	0	397
9	0	0	0	0	974
10	0	0	0	0	464
11	0	0	0	0	411
12	0	0	0	0	208
13	0	0	0	0	418
14	0	0	0	0	177
15	0	0	0	0	647
0	0	0	0	0	744
1	0	0	0	0	406
2	0	0	0	0	305
3	0	0	0	0	694
4	0	0	0	0	445
5	0	0	0	0	400
6	0	0	0	0	452
7	0	0	0	0	502
8	0	0	0	0	388
9	0	0	0	0	469
10	0	0	0	0	744
11	0	0	0	0	164
12	0	0	0	0	527
13	0	0	0	0	291
14	0	0	0	0	476
15	0	0	0	0	489
0	0	0	0	0	375
1	0	0	0	0	521
2	0	0	0	0	572
3	0	0	0	0	1022
4	0	0	0	0	225
5	0	0	0	0	667
6	0	0	0	0	834
7	0	0	0	0	178
8	0	0	0	0	312
9	0	0	0	0	679
10	0	0	0	0	389
11	0	0	0	0	386
12	0	0	0	0	418
13	0	0	0	0	390
14	0	0	0	0	388
15	0	0	0	0	505
0	0	0	0	0	329
1	0	0	0	0	617
2	0	0	0	0	389
3	0	0	0	0	603
4	0	0	0	0	510
5	0	0	0	0	904
6	0	0	0	0	399
7	0	0	0	0	479
8	0	0	0	0	751
9	0	0	0	0	276
10	0	0	0	0	925
11	0	0	0	0	273
12	0	0	0	0	524
13	0	0	0	0	422
14	0	0	0	0	462
15	0	0	0	0	552
0	0	0	0	0	433
1	0	0	0	0	409
2	0	0	0	0	243
3	0	0	0	0	420
4	0	0	0	0	612
5	0	0	0	0	427
6	0	0	0	0	506
7	0	0	0	0	577
8	0	0	0	0	623
9	0	0	0	0	527
10	0	0	0	0	448
11	0	0	0	0	615
12	0	0	0	0	393
13	0	0	0	0	543
14	0	0	0	0	590
15	0	0	0	0	484
0	0	0	0	0	571
1	0	0	0	0	600
2	0	0	0	0	556
3	0	0	0	0	337
4	0	0	0	0	537
5	0	0	0	0	441
6	0	0	0	0	444
7	0	0	0	0	565
8	0	0	0	0	497
9	0	0	0	0	530
10	0	0	0	0	521
11	0	0	0	0	608
12	0	0	0	0	478
13	0	0	0	0	696
14	0	0	0	0	491
15	0	0	0	0	594
0	0	0	0	0	488
1	0	0	0	0	531
2	0	0	0	0	490
3	0	0	0	0	506
4	0	0	0	0	529
5	0	0	0	0	502
6	0	0	0	0	481
7	0	0	0	0	511
8	0	0	0	0	531
9	0	0	0	0	481
10	0	0	0	0	530
11	0	0	0	0	469
12	0	0	0	0	547
13	0	0	0	0	572
14	0	0	0	0	483
15	0	0	0	0	503
0	0	0	0	0	518
1	0	0	0	0	448
2	0	0	0	0	598
3	0	0	0	0	480
4	0	0	0	0	511
5	0	0	0	0	538
6	0	0	0	0	538
7	0	0	0	0	454
8	0	0	0	0	521
9	0	0	0	0	455
10	0	0	0	0	514
11	0	0	0	0	501
12	0	0	0	0	498
13	0	0	0	0	530
14	0	0	0	0	490
15	0	0	0	0	496
0	0	0	0	0	479
1	0	0	0	0	649
2	0	0	0	0	496
3	0	0	0	0	497
4	0	0	0	0	517
5	0	0	0	0	504
6	0	0	0	0	512
7	0	0	0	0	525
8	0	0	0	0	553
9	0	0	0	0	511
10	0	0	0	0	512
11	0	0	0	0	512
12	0	0	0	0	489
13	0	0	0	0	531
14	0	0	0	0	519
15	0	0	0	0	543
0	0	0	0	0	531
1	0	0	0	0	454
2	0	0	0	0	633
3	0	0	0	0	497
4	0	0	0	0	515
5	0	0	0	0	521
6	0	0	0	0	514
7	0	0	0	0	503
8	0	0	0	0	562
9	0	0	0	0	472
10	0	0	0	0	521
11	0	0	0	0	498
12	0	0	0	0	508
13	0	0	0	0	497
14	0	0	0	0	560
15	0	0	0	0	511
0	0	0	0	0	514
1	0	0	0	0	541
2	0	0	0	0	506
3	0	0	0	0	501
4	0	0	0	0	541
5	0	0	0	0	502
6	0	0	0	0	483
7	0	0	0	0	517
8	0	0	0	0	511
9	0	0	0	0	542
10	0	0	0	0	522
11	0	0	0	0	499
12	0	0	0	0	516
13	0	0	0	0	513
14	0	0	0	0	504
15	0	0	0	0	505
0	0	0	0	0	518
1	0	0	0	0	495
2	0	0	0	0	497
3	0	0	0	0	550
4	0	0	0	0	496
5	0	0	0	0	509
6	0	0	0	0	543
7	0	0	0	0	508
8	0	0	0	0	519
9	0	0	0	0	515
10	0	0	0	0	512
11	0	0	0	0	502
12	0	0	0	0	572
13	0	0	0	0	503
14	0	0	0	0	496
15	0	0	0	0	498
0	0	0	0	0	551
1	0	0	0	0	503
2	0	0	0	0	507
3	0	0	0	0	528
4	0	0	0	0	503
5	0	0	0	0	533
6	0	0	0	0	520
7	0	0	0	0	514
8	0	0	0	0	529
9	0	0	0	0	496
10	0	0	0	0	519
11	0	0	0	0	512
12	0	0	0	0	539
13	0	0	0	0	503
14	0	0	0	0	506
15	0	0	0	0	499
0	0	0	0	0	561
1	0	0	0	0	505
2	0	0	0	0	497
3	0	0	0	0	513
4	0	0	0	0	529
5	0	0	0	0	518
6	0	0	0	0	509
7	0	0	0	0	494
8	0	0	0	0	524
9	0	0	0	0	513
10	0	0	0	0	502
11	0	0	0	0	542
12	0	0	0	0	474
13	0	0	0	0	541
14	0	0	0	0	501
15	0	0	0	0	522
0	0	0	0	0	514
1	0	0	0	0	539
2	0	0	0	0	512
3	0	0	0	0	525
4	0	0	0	0	523
5	0	0	0	0	492
6	0	0	0	0	511
7	0	0	0	0	576
8	0	0	0	0	488
9	0	0	0	0	509
10	0	0	0	0	533
11	0	0	0	0	504
12	0	0	0	0	513
13	0	0	0	0	512
14	0	0	0	0	512
15	0	0	0	0	524
0	0	0	0	0	547
1	0	0	0	0	529
2	0	0	0	0	494
3	0	0	0	0	507
4	0	0	0	0	516
5	0	0	0	0	515
6	0	0	0	0	512
7	0	0	0	0	505
8	0	0	0	0	509
9	0	0	0	0	508
10	0	0	0	0	559
11	0	0	0	0	487
12	0	0	0	0	496
13	0	0	0	0	505
14	0	0	0	0	542
15	0	0	0	0	498
0	0	0	0	0	534
1	0	0	0	0	511
2	0	0	0	0	508
3	0	0	0	0	484
4	0	0	0	0	558
5	0	0	0	0	510
6	0	0	0	0	529
7	0	0	0	0	513
8	0	0	0	0	499
9	0	0	0	0	514
10	0	0	0	0	502
11	0	0	0	0	510
12	0	0	0	0	521
13	0	0	0	0	508
14	0	0	0	0	510
15	0	0	0	0	474
0	0	0	0	0	564
1	0	0	0	0	508
2	0	0	0	0	479
3	0	0	0	0	513
4	0	0	0	0	522
5	0	0	0	0	512
6	0	0	0	0	519
7	0	0	0	0	618
8	0	0	0	0	518
9	0	0	0	0	424
10	0	0	0	0	588
11	0	0	0	0	498
12	0	0	0	0	465
13	0	0	0	0	600
14	0	0	0	0	461
15	0	0	0	0	483
0	0	0	0	0	577
1	0	0	0	0	419
2	0	0	0	0	616
3	0	0	0	0	499
4	0	0	0	0	533
5	0	0	0	0	491
6	0	0	0	0	558
7	0	0	0	0	524
8	0	0	0	0	588
9	0	0	0	0	412
10	0	0	0	0	512
11	0	0	0	0	497
12	0	0	0	0	583
13	0	0	0	0	412
14	0	0	0	0	637
15	0	0	0	0	451
0	0	0	0	0	437
1	0	0	0	0	595
2	0	0	0	0	356
3	0	0	0	0	634
4	0	0	0	0	517
5	0	0	0	0	515
6	0	0	0	0	668
7	0	0	0	0	463
8	0	0	0	0	531
9	0	0	0	0	628
10	0	0	0	0	369
11	0	0	0	0	729
12	0	0	0	0	481
13	0	0	0	0	513
14	0	0	0	0	475
15	0	0	0	0	402
0	0	0	0	0	708
1	0	0	0	0	718
2	0	0	0	0	544
3	0	0	0	0	481
4	0	0	0	0	715
5	0	0	0	0	150
6	0	0	0	0	818
7	0	0	0	0	185
8	0	0	0	0	909
9	0	0	0	0	449
10	0	0	0	0	638
11	0	0	0	0	200
12	0	0	0	0	703
13	0	0	0	0	226
14	0	0	0	0	944
15	0	0	0	0	345
0	0	0	0	0	774
1	0	0	0	0	483
2	0	0	0	0	398
3	0	0	0	0	805
4	0	0	0	0	509
5	0	0	0	0	523
6	0	0	0	0	385
7	0	0	0	0	376
8	0	0	0	0	680
9	0	0	0	0	673
10	0	0	0	0	325
11	0	0	0	0	896
12	0	0	0	0	0
13	0	0	0	0	667
14	0	0	0	0	147
15	0	0	0	0	674
0	0	0	0	0	295
1	0	0	0	0	327
2	0	0	0	0	840
3	0	0	0	0	313
4	0	0	0	0	751
5	0	0	0	0	221
6	0	0	0	0	115
7	0	0	0	0	820
8	0	0	0	0	250
9	0	0	0	0	543
10	0	0	0	0	435
11	0	0	0	0	583
12	0	0	0	0	623
13	0	0	0	0	390
14	0	0	0	0	548
15	0	0	0	0	599
0	0	0	0	0	379
1	0	0	0	0	589
2	0	0	0	0	663
3	0	0	0	0	628
4	0	0	0	0	284
5	0	0	0	0	655
6	0	0	0	0	469
7	0	0	0	0	504
8	0	0	0	0	414
9	0	0	0	0	556
10	0	0	0	0	500
11	0	0	0	0	603
12	0	0	0	0	378
13	0	0	0	0	418
14	0	0	0	0	549
15	0	0	0	0	610
0	0	0	0	0	634
1	0	0	0	0	416
2	0	0	0	0	397
3	0	0	0	0	454
4	0	0	0	0	453
5	0	0	0	0	419
6	0	0	0	0	508
7	0	0	0	0	475
8	0	0	0	0	579
9	0	0	0	0	534
10	0	0	0	0	510
11	0	0	0	0	476
12	0	0	0	0	463
13	0	0	0	0	618
14	0	0	0	0	499
15	0	0	0	0	509
0	0	0	0	0	602
1	0	0	0	0	452
2	0	0	0	0	567
3	0	0	0	0	573
4	0	0	0	0	444
5	0	0	0	0	555
6	0	0	0	0	449
7	0	0	0	0	657
8	0	0	0	0	491
9	0	0	0	0	476
10	0	0	0	0	473
11	0	0	0	0	515
12	0	0	0	0	439
13	0	0	0	0	490
14	0	0	0	0	487
15	0	0	0	0	555
0	0	0	0	0	498
1	0	0	0	0	503
2	0	0	0	0	479
3	0	0	0	0	531
4	0	0	0	0	670
5	0	0	0	0	435
6	0	0	0	0	447
7	0	0	0	0	473
8	0	0	0	0	555
9	0	0	0	0	491
10	0	0	0	0	515
11	0	0	0	0	521
12	0	0	0	0	496
13	0	0	0	0	616
14	0	0	0	0	579
15	0	0	0	0	537
0	0	0	0	0	519
1	0	0	0	0	570
2	0	0	0	0	489
3	0	0	0	0	500
4	0	0	0	0	535
5	0	0	0	0	520
6	0	0	0	0	504
7	0	0	0	0	540
8	0	0	0	0	516
9	0	0	0	0	502
10	0	0	0	0	453
11	0	0	0	0	524
12	0	0	0	0	492
13	0	0	0	0	477
14	0	0	0	0	557
15	0	0	0	0	488
0	0	0	0	0	486
1	0	0	0	0	627
2	0	0	0	0	474
3	0	0	0	0	496
4	0	0	0	0	547
5	0	0	0	0	510
6	0	0	0	0	556
7	0	0	0	0	472
8	0	0	0	0	509
9	0	0	0	0	507
10	0	0	0	0	510
11	0	0	0	0	531
12	0	0	0	0	499
13	0	0	0	0	602
14	0	0	0	0	484
15	0	0	0	0	490
0	0	0	0	0	510
1	0	0	0	0	517
2	0	0	0	0	522
3	0	0	0	0	506
4	0	0	0	0	525
5	0	0	0	0	507
6	0	0	0	0	492
7	0	0	0	0	547
8	0	0	0	0	502
9	0	0	0	0	514
10	0	0	0	0	510
11	0	0	0	0	518
12	0	0	0	0	484
13	0	0	0	0	512
14	0	0	0	0	532
15	0	0	0	0	474
0	0	0	0	0	504
1	0	0	0	0	512
2	0	0	0	0	515
3	0	0	0	0	512
4	0	0	0	0	497
5	0	0	0	0	514
6	0	0	0	0	509
7	0	0	0	0	557
8	0	0	0	0	505
9	0	0	0	0	511
10	0	0	0	0	513
11	0	0	0	0	511
12	0	0	0	0	511
13	0	0	0	0	508
14	0	0	0	0	546
15	0	0	0	0	555
0	0	0	0	0	521
1	0	0	0	0	519
2	0	0	0	0	512
3	0	0	0	0	513
4	0	0	0	0	504
5	0	0	0	0	506
6	0	0	0	0	521
7	0	0	0	0	511
8	0	0	0	0	512
9	0	0	0	0	494
10	0	0	0	0	518
11	0	0	0	0	513
12	0	0	0	0	497
13	0	0	0	0	522
14	0	0	0	0	536
15	0	0	0	0	533
0	0	0	0	0	520
1	0	0	0	0	508
2	0	0	0	0	506
3	0	0	0	0	518
4	0	0	0	0	515
5	0	0	0	0	519
6	0	0	0	0	533
7	0	0	0	0	498
8	0	0	0	0	519
9	0	0	0	0	521
10	0	0	0	0	491
11	0	0	0	0	519
12	0	0	0	0	518
13	0	0	0	0	506
14	0	0	0	0	497
15	0	0	0	0	574
0	0	0	0	0	490
1	0	0	0	0	523
2	0	0	0	0	503
3	0	0	0	0	515
4	0	0	0	0	507
5	0	0	0	0	513
6	0	0	0	0	508
7	0	0	0	0	503
8	0	0	0	0	520
9	0	0	0	0	497
10	0	0	0	0	506
11	0	0	0	0	493
12	0	0	0	0	518
13	0	0	0	0	516
14	0	0	0	0	514
15	0	0	0	0	506
0	0	0	0	0	528
1	0	0	0	0	503
2	0	0	0	0	511
3	0	0	0	0	574
4	0	0	0	0	507
5	0	0	0	0	496
6	0	0	0	0	516
7	0	0	0	0	520
8	0	0	0	0	511
9	0	0	0	0	498
10	0	0	0	0	518
11	0	0	0	0	501
12	0	0	0	0	511
13	0	0	0	0	497
14	0	0	0	0	491
15	0	0	0	0	518
0	0	0	0	0	510
1	0	0	0	0	502
2	0	0	0	0	545
3	0	0	0	0	516
4	0	0	0	0	515
5	0	0	0	0	528
6	0	0	0	0	512
7	0	0	0	0	524
8	0	0	0	0	507
9	0	0	0	0	496
10	0	0	0	0	505
11	0	0	0	0	528
12	0	0	0	0	503
13	0	0	0	0	523
14	0	0	0	0	548
15	0	0	0	0	512
0	0	0	0	0	520
1	0	0	0	0	526
2	0	0	0	0	526
3	0	0	0	0	512
4	0	0	0	0	512
5	0	0	0	0	499
6	0	0	0	0	500
7	0	0	0	0	490
8	0	0	0	0	517
9	0	0	0	0	516
10	0	0	0	0	494
11	0	0	0	0	513
12	0	0	0	0	526
13	0	0	0	0	504
14	0	0	0	0	484
15	0	0	0	0	484
0	0	0	0	0	577
1	0	0	0	0	502
2	0	0	0	0	499
3	0	0	0	0	505
4	0	0	0	0	528
5	0	0	0	0	505
6	0	0	0	0	452
7	0	0	0	0	600
8	0	0	0	0	513
9	0	0	0	0	514
10	0	0	0	0	454
11	0	0	0	0	557
12	0	0	0	0	634
13	0	0	0	0	379
14	0	0	0	0	553
15	0	0	0	0	681
0	0	0	0	0	335
1	0	0	0	0	501
2	0	0	0	0	519
3	0	0	0	0	414
4	0	0	0	0	604
5	0	0	0	0	568
6	0	0	0	0	380
7	0	0	0	0	625
8	0	0	0	0	319
9	0	0	0	0	700
10	0	0	0	0	415
11	0	0	0	0	463
12	0	0	0	0	575
13	0	0	0	0	274
14	0	0	0	0	1022
15	0	0	0	0	330
0	0	0	0	0	601
1	0	0	0	0	451
2	0	0	0	0	215
3	0	0	0	0	866
4	0	0	0	0	393
5	0	0	0	0	859
6	0	0	0	0	529
7	0	0	0	0	913
8	0	0	0	0	868
9	0	0	0	0	243
10	0	0	0	0	1022
11	0	0	0	0	548
12	0	0	0	0	743
13	0	0	0	0	498
14	0	0	0	0	421
15	0	0	0	0	480
0	0	0	0	0	536
1	0	0	0	0	1022
2	0	0	0	0	61
3	0	0	0	0	956
4	0	0	0	0	482
5	0	0	0	0	450
6	0	0	0	0	633
7	0	0	0	0	511
8	0	0	0	0	555
9	0	0	0	0	244
10	0	0	0	0	330
11	0	0	0	0	591
12	0	0	0	0	718
13	0	0	0	0	330
14	0	0	0	0	500
15	0	0	0	0	897
0	0	0	0	0	451
1	0	0	0	0	746
2	0	0	0	0	732
3	0	0	0	0	433
4	0	0	0	0	269
5	0	0	0	0	611
6	0	0	0	0	432
7	0	0	0	0	243
8	0	0	0	0	585
9	0	0	0	0	655
10	0	0	0	0	281
11	0	0	0	0	686
12	0	0	0	0	307
13	0	0	0	0	456
14	0	0	0	0	426
15	0	0	0	0	539
0	0	0	0	0	245
1	0	0	0	0	558
2	0	0	0	0	678
3	0	0	0	0	432
4	0	0	0	0	835
5	0	0	0	0	504
6	0	0	0	0	584
7	0	0	0	0	440
8	0	0	0	0	922
9	0	0	0	0	296
10	0	0	0	0	489
11	0	0	0	0	467
12	0	0	0	0	492
13	0	0	0	0	502
14	0	0	0	0	784
15	0	0	0	0	425
0	0	0	0	0	501
1	0	0	0	0	623
2	0	0	0	0	664
3	0	0	0	0	449
4	0	0	0	0	527
5	0	0	0	0	479
6	0	0	0	0	326
7	0	0	0	0	624
8	0	0	0	0	450
9	0	0	0	0	715
10	0	0	0	0	667
11	0	0	0	0	443
12	0	0	0	0	475
13	0	0	0	0	477
14	0	0	0	0	567
15	0	0	0	0	544
0	0	0	0	0	436
1	0	0	0	0	495
2	0	0	0	0	667
3	0	0	0	0	412
4	0	0	0	0	518
5	0	0	0	0	588
6	0	0	0	0	483
7	0	0	0	0	615
8	0	0	0	0	497
9	0	0	0	0	497
10	0	0	0	0	593
11	0	0	0	0	513
12	0	0	0	0	574
13	0	0	0	0	467
14	0	0	0	0	586
15	0	0	0	0	508
0	0	0	0	0	511
1	0	0	0	0	498
2	0	0	0	0	501
3	0	0	0	0	587
4	0	0	0	0	520
5	0	0	0	0	476
6	0	0	0	0	592
7	0	0	0	0	493
8	0	0	0	0	481
9	0	0	0	0	502
10	0	0	0	0	545
11	0	0	0	0	508
12	0	0	0	0	553
13	0	0	0	0	516
14	0	0	0	0	487
15	0	0	0	0	549
0	0	0	0	0	502
1	0	0	0	0	543
2	0	0	0	0	484
3	0	0	0	0	515
4	0	0	0	0	502
5	0	0	0	0	530
6	0	0	0	0	515
7	0	0	0	0	514
8	0	0	0	0	476
9	0	0	0	0	540
10	0	0	0	0	513
11	0	0	0	0	455
12	0	0	0	0	502
13	0	0	0	0	501
14	0	0	0	0	498
15	0	0	0	0	515
0	0	0	0	0	531
1	0	0	0	0	528
2	0	0	0	0	506
3	0	0	0	0	489
4	0	0	0	0	510
5	0	0	0	0	464
6	0	0	0	0	516
7	0	0	0	0	508
8	0	0	0	0	470
9	0	0	0	0	542
10	0	0	0	0	507
11	0	0	0	0	523
12	0	0	0	0	525
13	0	0	0	0	550
14	0	0	0	0	483
15	0	0	0	0	521
0	0	0	0	0	541
1	0	0	0	0	493
2	0	0	0	0	500
3	0	0	0	0	590
4	0	0	0	0	502
5	0	0	0	0	470
6	0	0	0	0	543
7	0	0	0	0	508
8	0	0	0	0	495
9	0	0	0	0	538
10	0	0	0	0	523
11	0	0	0	0	497
12	0	0	0	0	510
13	0	0	0	0	515
14	0	0	0	0	527
15	0	0	0	0	496
0	0	0	0	0	513
1	0	0	0	0	503
2	0	0	0	0	559
3	0	0	0	0	512
4	0	0	0	0	494
5	0	0	0	0	508
6	0	0	0	0	507
7	0	0	0	0	536
8	0	0	0	0	515
9	0	0	0	0	502
10	0	0	0	0	507
11	0	0	0	0	518
12	0	0	0	0	519
13	0	0	0	0	481
14	0	0	0	0	536
15	0	0	0	0	476
0	0	0	0	0	544
1	0	0	0	0	494
2	0	0	0	0	518
3	0	0	0	0	513
4	0	0	0	0	526
5	0	0	0	0	518
6	0	0	0	0	516
7	0	0	0	0	519
8	0	0	0	0	507
9	0	0	0	0	553
10	0	0	0	0	492
11	0	0	0	0	509
12	0	0	0	0	511
13	0	0	0	0	515
14	0	0	0	0	505
15	0	0	0	0	518
0	0	0	0	0	514
1	0	0	0	0	516
2	0	0	0	0	485
3	0	0	0	0	549
4	0	0	0	0	512
5	0	0	0	0	508
6	0	0	0	0	515
7	0	0	0	0	515
8	0	0	0	0	506
9	0	0	0	0	530
10	0	0	0	0	504
11	0	0	0	0	520
12	0	0	0	0	506
13	0	0	0	0	493
14	0	0	0	0	564
15	0	0	0	0	499
0	0	0	0	0	525
1	0	0	0	0	512
2	0	0	0	0	519
3	0	0	0	0	517
4	0	0	0	0	518
5	0	0	0	0	513
6	0	0	0	0	520
7	0	0	0	0	501
8	0	0	0	0	524
9	0	0	0	0	519
10	0	0	0	0	511
11	0	0	0	0	525
12	0	0	0	0	516
13	0	0	0	0	523
14	0	0	0	0	514
15	0	0	0	0	518
0	0	0	0	0	526
1	0	0	0	0	504
2	0	0	0	0	543
3	0	0	0	0	509
4	0	0	0	0	507
5	0	0	0	0	506
6	0	0	0	0	504
7	0	0	0	0	519
8	0	0	0	0	530
9	0	0	0	0	515
10	0	0	0	0	517
11	0	0	0	0	517
12	0	0	0	0	502
13	0	0	0	0	515
14	0	0	0	0	524
15	0	0	0	0	521
0	0	0	0	0	530
1	0	0	0	0	511
2	0	0	0	0	501
3	0	0	0	0	494
4	0	0	0	0	521
5	0	0	0	0	510
6	0	0	0	0	524
7	0	0	0	0	513
8	0	0	0	0	515
9	0	0	0	0	513
10	0	0	0	0	520
11	0	0	0	0	512
12	0	0	0	0	531
13	0	0	0	0	513
14	0	0	0	0	508
15	0	0	0	0	497
0	0	0	0	0	501
1	0	0	0	0	561
2	0	0	0	0	500
3	0	0	0	0	511
4	0	0	0	0	564
5	0	0	0	0	508
6	0	0	0	0	502
7	0	0	0	0	502
8	0	0	0	0	486
9	0	0	0	0	524
10	0	0	0	0	541
11	0	0	0	0	479
12	0	0	0	0	543
13	0	0	0	0	510
14	0	0	0	0	466
15	0	0	0	0	561
0	0	0	0	0	544
1	0	0	0	0	519
2	0	0	0	0	472
3	0	0	0	0	496
4	0	0	0	0	594
5	0	0	0	0	492
6	0	0	0	0	504
7	0	0	0	0	584
8	0	0	0	0	455
9	0	0	0	0	600
10	0	0	0	0	396
11	0	0	0	0	617
12	0	0	0	0	679
13	0	0	0	0	188
14	0	0	0	0	715
15	0	0	0	0	504
0	0	0	0	0	412
1	0	0	0	0	717
2	0	0	0	0	384
3	0	0	0	0	493
4	0	0	0	0	445
5	0	0	0	0	956
6	0	0	0	0	533
7	0	0	0	0	53
8	0	0	0	0	576
9	0	0	0	0	964
10	0	0	0	0	315
11	0	0	0	0	442
12	0	0	0	0	103
13	0	0	0	0	337
14	0	0	0	0	0
15	0	0	0	0	386
0	0	0	0	0	228
1	0	0	0	0	407
2	0	0	0	0	543
3	0	0	0	0	192
4	0	0	0	0	658
5	0	0	0	0	451
6	0	0	0	0	464
7	0	0	0	0	356
8	0	0	0	0	403
9	0	0	0	0	754
10	0	0	0	0	414
11	0	0	0	0	440
12	0	0	0	0	952
13	0	0	0	0	272
14	0	0	0	0	559
15	0	0	0	0	462
0	0	0	0	0	512
1	0	0	0	0	548
2	0	0	0	0	362
3	0	0	0	0	447
4	0	0	0	0	449
5	0	0	0	0	761
6	0	0	0	0	499
7	0	0	0	0	416
8	0	0	0	0	354
9	0	0	0	0	649
10	0	0	0	0	431
11	0	0	0	0	445
12	0	0	0	0	545
13	0	0	0	0	425
14	0	0	0	0	595
15	0	0	0	0	548
0	0	0	0	0	433
1	0	0	0	0	607
2	0	0	0	0	492
3	0	0	0	0	680
4	0	0	0	0	732
5	0	0	0	0	489
6	0	0	0	0	539
7	0	0	0	0	505
8	0	0	0	0	485
9	0	0	0	0	477
10	0	0	0	0	665
11	0	0	0	0	677
12	0	0	0	0	448
13	0	0	0	0	466
14	0	0	0	0	548
15	0	0	0	0	525
0	0	0	0	0	493
1	0	0	0	0	437
2	0	0	0	0	572
3	0	0	0	0	505
4	0	0	0	0	501
5	0	0	0	0	387
6	0	0	0	0	575
7	0	0	0	0	512
8	0	0	0	0	492
9	0	0	0	0	528
10	0	0	0	0	485
11	0	0	0	0	505
12	0	0	0	0	576
13	0	0	0	0	486
14	0	0	0	0	507
15	0	0	0	0	515
0	0	0	0	0	505
1	0	0	0	0	512
2	0	0	0	0	516
3	0	0	0	0	604
4	0	0	0	0	548
5	0	0	0	0	510
6	0	0	0	0	523
7	0	0	0	0	512
8	0	0	0	0	515
9	0	0	0	0	474
10	0	0	0	0	432
11	0	0	0	0	689
12	0	0	0	0	488
13	0	0	0	0	524
14	0	0	0	0	538
15	0	0	0	0	493
0	0	0	0	0	511
1	0	0	0	0	577
2	0	0	0	0	622
3	0	0	0	0	496
4	0	0	0	0	516
5	0	0	0	0	518
6	0	0	0	0	496
7	0	0	0	0	523
8	0	0	0	0	494
9	0	0	0	0	551
10	0	0	0	0	467
11	0	0	0	0	536
12	0	0	0	0	508
13	0	0	0	0	547
14	0	0	0	0	518
15	0	0	0	0	510
0	0	0	0	0	510
1	0	0	0	0	509
2	0	0	0	0	503
3	0	0	0	0	541
4	0	0	0	0	523
5	0	0	0	0	497
6	0	0	0	0	481
7	0	0	0	0	518
8	0	0	0	0	503
9	0	0	0	0	524
10	0	0	0	0	503
11	0	0	0	0	512
12	0	0	0	0	527
13	0	0	0	0	485
14	0	0	0	0	541
15	0	0	0	0	501
0	0	0	0	0	500
1	0	0	0	0	516
2	0	0	0	0	518
3	0	0	0	0	528
4	0	0	0	0	499
5	0	0	0	0	480
6	0	0	0	0	580
7	0	0	0	0	466
8	0	0	0	0	492
9	0	0	0	0	537
10	0	0	0	0	517
11	0	0	0	0	515
12	0	0	0	0	512
13	0	0	0	0	512
14	0	0	0	0	518
15	0	0	0	0	513
0	0	0	0	0	515
1	0	0	0	0	507
2	0	0	0	0	545
3	0	0	0	0	528
4	0	0	0	0	510
5	0	0	0	0	508
6	0	0	0	0	512
7	0	0	0	0	520
8	0	0	0	0	516
9	0	0	0	0	506
10	0	0	0	0	547
11	0	0	0	0	496
12	0	0	0	0	536
13	0	0	0	0	495
14	0	0	0	0	531
15	0	0	0	0	505
0	0	0	0	0	515
1	0	0	0	0	517
2	0	0	0	0	515
3	0	0	0	0	502
4	0	0	0	0	501
5	0	0	0	0	517
6	0	0	0	0	536
7	0	0	0	0	501
8	0	0	0	0	511
9	0	0	0	0	523
10	0	0	0	0	512
11	0	0	0	0	526
12	0	0	0	0	494
13	0	0	0	0	517
14	0	0	0	0	492
15	0	0	0	0	514
0	0	0	0	0	502
1	0	0	0	0	551
2	0	0	0	0	509
3	0	0	0	0	506
4	0	0	0	0	521
5	0	0	0	0	544
6	0	0	0	0	496
7	0	0	0	0	515
8	0	0	0	0	495
9	0	0	0	0	537
10	0	0	0	0	511
11	0	0	0	0	515
12	0	0	0	0	551
13	0	0	0	0	500
14	0	0	0	0	507
15	0	0	0	0	513
0	0	0	0	0	522
1	0	0	0	0	507
2	0	0	0	0	512
3	0	0	0	0	522
4	0	0	0	0	510
5	0	0	0	0	525
6	0	0	0	0	507
7	0	0	0	0	523
8	0	0	0	0	528
9	0	0	0	0	515
10	0	0	0	0	515
11	0	0	0	0	525
12	0	0	0	0	503
13	0	0	0	0	531
14	0	0	0	0	517
15	0	0	0	0	509
0	0	0	0	0	529
1	0	0	0	0	519
2	0	0	0	0	526
3	0	0	0	0	486
4	0	0	0	0	511
5	0	0	0	0	516
6	0	0	0	0	516
7	0	0	0	0	511
8	0	0	0	0	521
9	0	0	0	0	518
10	0	0	0	0	517
11	0	0	0	0	514
12	0	0	0	0	515
13	0	0	0	0	519
14	0	0	0	0	526
15	0	0	0	0	503
0	0	0	0	0	531
1	0	0	0	0	516
2	0	0	0	0	530
3	0	0	0	0	515
4	0	0	0	0	514
5	0	0	0	0	515
6	0	0	0	0	506
7	0	0	0	0	511
8	0	0	0	0	519
9	0	0	0	0	516
10	0	0	0	0	515
11	0	0	0	0	535
12	0	0	0	0	519
13	0	0	0	0	522
14	0	0	0	0	517
15	0	0	0	0	513
0	0	0	0	0	511
1	0	0	0	0	507
2	0	0	0	0	526
3	0	0	0	0	503
4	0	0	0	0	508
5	0	0	0	0	511
6	0	0	0	0	501
7	0	0	0	0	537
8	0	0	0	0	523
9	0	0	0	0	496
10	0	0	0	0	543
11	0	0	0	0	514
12	0	0	0	0	499
13	0	0	0	0	543
14	0	0	0	0	489
15	0	0	0	0	524
0	0	0	0	0	554
1	0	0	0	0	462
2	0	0	0	0	593
3	0	0	0	0	467
4	0	0	0	0	515
5	0	0	0	0	556
6	0	0	0	0	398
7	0	0	0	0	672
8	0	0	0	0	472
9	0	0	0	0	399
10	0	0	0	0	627
11	0	0	0	0	480
12	0	0	0	0	505
13	0	0	0	0	513
14	0	0	0	0	501
15	0	0	0	0	450
0	0	0	0	0	737
1	0	0	0	0	521
2	0	0	0	0	395
3	0	0	0	0	579
4	0	0	0	0	419
5	0	0	0	0	586
6	0	0	0	0	186
7	0	0	0	0	605
8	0	0	0	0	419
9	0	0	0	0	278
10	0	0	0	0	663
11	0	0	0	0	657
12	0	0	0	0	82
13	0	0	0	0	483
14	0	0	0	0	693
15	0	0	0	0	0
0	0	0	0	0	256
1	0	0	0	0	505
2	0	0	0	0	210
3	0	0	0	0	494
4	0	0	0	0	37
5	0	0	0	0	462
6	0	0	0	0	456
7	0	0	0	0	384
8	0	0	0	0	540
9	0	0	0	0	495
10	0	0	0	0	254
11	0	0	0	0	539
12	0	0	0	0	221
13	0	0	0	0	555
14	0	0	0	0	454
15	0	0	0	0	545
0	0	0	0	0	687
1	0	0	0	0	219
2	0	0	0	0	640
3	0	0	0	0	526
4	0	0	0	0	491
5	0	0	0	0	527
6	0	0	0	0	380
7	0	0	0	0	591
8	0	0	0	0	560
9	0	0	0	0	430
10	0	0	0	0	434
11	0	0	0	0	671
12	0	0	0	0	538
13	0	0	0	0	704
14	0	0	0	0	301
15	0	0	0	0	464
0	0	0	0	0	526
1	0	0	0	0	266
2	0	0	0	0	528
3	0	0	0	0	355
4	0	0	0	0	393
5	0	0	0	0	622
6	0	0	0	0	631
7	0	0	0	0	329
8	0	0	0	0	440
9	0	0	0	0	454
10	0	0	0	0	572
11	0	0	0	0	491
12	0	0	0	0	551
13	0	0	0	0	430
14	0	0	0	0	448
15	0	0	0	0	516
0	0	0	0	0	491
1	0	0	0	0	461
2	0	0	0	0	545
3	0	0	0	0	578
4	0	0	0	0	571
5	0	0	0	0	403
6	0	0	0	0	701
7	0	0	0	0	463
8	0	0	0	0	630
9	0	0	0	0	540
10	0	0	0	0	471
11	0	0	0	0	587
12	0	0	0	0	476
13	0	0	0	0	555
14	0	0	0	0	531
15	0	0	0	0	469
0	0	0	0	0	583
1	0	0	0	0	480
2	0	0	0	0	416
3	0	0	0	0	518
4	0	0	0	0	444
5	0	0	0	0	459
6	0	0	0	0	520
7	0	0	0	0	495
8	0	0	0	0	495
9	0	0	0	0	455
10	0	0	0	0	531
11	0	0	0	0	484
12	0	0	0	0	382
13	0	0	0	0	647
14	0	0	0	0	442
15	0	0	0	0	537
0	0	0	0	0	513
1	0	0	0	0	534
2	0	0	0	0	517
3	0	0	0	0	542
4	0	0	0	0	514
5	0	0	0	0	504
6	0	0	0	0	569
7	0	0	0	0	650
8	0	0	0	0	405
9	0	0	0	0	507
10	0	0	0	0	492
11	0	0	0	0	516
12	0	0	0	0	518
13	0	0	0	0	501
14	0	0	0	0	507
15	0	0	0	0	475
0	0	0	0	0	529
1	0	0	0	0	472
2	0	0	0	0	489
3	0	0	0	0	540
4	0	0	0	0	497
5	0	0	0	0	522
6	0	0	0	0	459
7	0	0	0	0	619
8	0	0	0	0	510
9	0	0	0	0	493
10	0	0	0	0	551
11	0	0	0	0	515
12	0	0	0	0	504
13	0	0	0	0	496
14	0	0	0	0	533
15	0	0	0	0	492
0	0	0	0	0	548
1	0	0	0	0	531
2	0	0	0	0	481
3	0	0	0	0	580
4	0	0	0	0	502
5	0	0	0	0	519
6	0	0	0	0	534
7	0	0	0	0	521
8	0	0	0	0	569
9	0	0	0	0	466
10	0	0	0	0	528
11	0	0	0	0	500
12	0	0	0	0	481
13	0	0	0	0	522
14	0	0	0	0	506
15	0	0	0	0	501
0	0	0	0	0	498
1	0	0	0	0	508
2	0	0	0	0	515
3	0	0	0	0	499
4	0	0	0	0	510
5	0	0	0	0	518
6	0	0	0	0	504
7	0	0	0	0	521
8	0	0	0	0	507
9	0	0	0	0	510
10	0	0	0	0	515
11	0	0	0	0	522
12	0	0	0	0	489
13	0	0	0	0	543
14	0	0	0	0	513
15	0	0	0	0	513
0	0	0	0	0	516
1	0	0	0	0	521
2	0	0	0	0	506
3	0	0	0	0	489
4	0	0	0	0	534
5	0	0	0	0	481
6	0	0	0	0	528
7	0	0	0	0	516
8	0	0	0	0	505
9	0	0	0	0	522
10	0	0	0	0	524
11	0	0	0	0	492
12	0	0	0	0	540
13	0	0	0	0	542
14	0	0	0	0	511
15	0	0	0	0	497
0	0	0	0	0	534
1	0	0	0	0	510
2	0	0	0	0	492
3	0	0	0	0	567
4	0	0	0	0	486
5	0	0	0	0	508
6	0	0	0	0	508
7	0	0	0	0	512
8	0	0	0	0	503
9	0	0	0	0	550
10	0	0	0	0	497
11	0	0	0	0	519
12	0	0	0	0	517
13	0	0	0	0	512
14	0	0	0	0	525
15	0	0	0	0	512
0	0	0	0	0	518
1	0	0	0	0	516
2	0	0	0	0	501
3	0	0	0	0	524
4	0	0	0	0	523
5	0	0	0	0	501
6	0	0	0	0	509
7	0	0	0	0	508
8	0	0	0	0	509
9	0	0	0	0	528
10	0	0	0	0	515
11	0	0	0	0	501
12	0	0	0	0	524
13	0	0	0	0	519
14	0	0	0	0	508
15	0	0	0	0	515
0	0	0	0	0	511
1	0	0	0	0	510
2	0	0	0	0	513
3	0	0	0	0	521
4	0	0	0	0	510
5	0	0	0	0	491
6	0	0	0	0	533
7	0	0	0	0	504
8	0	0	0	0	523
9	0	0	0	0	515
10	0	0	0	0	516
11	0	0	0	0	522
12	0	0	0	0	507
13	0	0	0	0	509
14	0	0	0	0	509
15	0	0	0	0	554
0	0	0	0	0	491
1	0	0	0	0	517
2	0	0	0	0	520
3	0	0	0	0	511
4	0	0	0	0	511
5	0	0	0	0	526
6	0	0	0	0	507
7	0	0	0	0	519
8	0	0	0	0	511
9	0	0	0	0	508
10	0	0	0	0	524
11	0	0	0	0	512
12	0	0	0	0	520
13	0	0	0	0	524
14	0	0	0	0	502
15	0	0	0	0	509
0	0	0	0	0	507
1	0	0	0	0	519
2	0	0	0	0	508
3	0	0	0	0	520
4	0	0	0	0	514
5	0	0	0	0	512
6	0	0	0	0	517
7	0	0	0	0	527
8	0	0	0	0	542
9	0	0	0	0	510
10	0	0	0	0	518
11	0	0	0	0	504
12	0	0	0	0	522
13	0	0	0	0	512
14	0	0	0	0	514
15	0	0	0	0	535
0	0	0	0	0	492
1	0	0	0	0	514
2	0	0	0	0	519
3	0	0	0	0	535
4	0	0	0	0	486
5	0	0	0	0	537
6	0	0	0	0	510
7	0	0	0	0	516
8	0	0	0	0	516
9	0	0	0	0	501
10	0	0	0	0	504
11	0	0	0	0	508
12	0	0	0	0	496
13	0	0	0	0	552
14	0	0	0	0	510
15	0	0	0	0	510
0	0	0	0	0	504
1	0	0	0	0	550
2	0	0	0	0	479
3	0	0	0	0	532
4	0	0	0	0	515
5	0	0	0	0	513
6	0	0	0	0	516
7	0	0	0	0	513
8	0	0	0	0	496
9	0	0	0	0	515
10	0	0	0	0	491
11	0	0	0	0	490
12	0	0	0	0	565
13	0	0	0	0	487
14	0	0	0	0	508
15	0	0	0	0	536
0	0	0	0	0	518
1	0	0	0	0	436
2	0	0	0	0	518
3	0	0	0	0	576
4	0	0	0	0	402
5	0	0	0	0	597
6	0	0	0	0	458
7	0	0	0	0	534
8	0	0	0	0	535
9	0	0	0	0	416
10	0	0	0	0	608
11	0	0	0	0	348
12	0	0	0	0	571
13	0	0	0	0	697
14	0	0	0	0	606
15	0	0	0	0	542
0	0	0	0	0	459
1	0	0	0	0	434
2	0	0	0	0	468
3	0	0	0	0	451
4	0	0	0	0	527
5	0	0	0	0	422
6	0	0	0	0	271
7	0	0	0	0	262
8	0	0	0	0	648
9	0	0	0	0	238
10	0	0	0	0	525
11	0	0	0	0	1022
12	0	0	0	0	285
13	0	0	0	0	992
14	0	0	0	0	441
15	0	0	0	0	855
0	0	0	0	0	190
1	0	0	0	0	477
2	0	0	0	0	512
3	0	0	0	0	307
4	0	0	0	0	478
5	0	0	0	0	438
6	0	0	0	0	453
7	0	0	0	0	496
8	0	0	0	0	462
9	0	0	0	0	1013
10	0	0	0	0	633
11	0	0	0	0	499
12	0	0	0	0	521
13	0	0	0	0	805
14	0	0	0	0	415
15	0	0	0	0	372
0	0	0	0	0	683
1	0	0	0	0	315
2	0	0	0	0	274
3	0	0	0	0	565
4	0	0	0	0	240
5	0	0	0	0	566
6	0	0	0	0	643
7	0	0	0	0	431
8	0	0	0	0	498
9	0	0	0	0	219
10	0	0	0	0	659
11	0	0	0	0	456
12	0	0	0	0	589
13	0	0	0	0	361
14	0	0	0	0	463
15	0	0	0	0	739
0	0	0	0	0	225
1	0	0	0	0	585
2	0	0	0	0	559
3	0	0	0	0	541
4	0	0	0	0	514
5	0	0	0	0	601
6	0	0	0	0	765
7	0	0	0	0	679
8	0	0	0	0	423
9	0	0	0	0	919
10	0	0	0	0	566
11	0	0	0	0	429
12	0	0	0	0	512
13	0	0	0	0	528
14	0	0	0	0	497
15	0	0	0	0	779
0	0	0	0	0	488
1	0	0	0	0	490
2	0	0	0	0	363
3	0	0	0	0	506
4	0	0	0	0	500
5	0	0	0	0	498
6	0	0	0	0	458
7	0	0	0	0	527
8	0	0	0	0	676
9	0	0	0	0	478
10	0	0	0	0	507
11	0	0	0	0	406
12	0	0	0	0	627
13	0	0	0	0	365
14	0	0	0	0	662
15	0	0	0	0	458
0	0	0	0	0	457
1	0	0	0	0	691
2	0	0	0	0	463
3	0	0	0	0	514
4	0	0	0	0	679
5	0	0	0	0	492
6	0	0	0	0	475
7	0	0	0	0	539
8	0	0	0	0	785
9	0	0	0	0	376
10	0	0	0	0	491
11	0	0	0	0	769
12	0	0	0	0	396
13	0	0	0	0	480
14	0	0	0	0	480
15	0	0	0	0	571
0	0	0	0	0	507
1	0	0	0	0	461
2	0	0	0	0	526
3	0	0	0	0	525
4	0	0	0	0	572
5	0	0	0	0	434
6	0	0	0	0	531
7	0	0	0	0	457
8	0	0	0	0	513
9	0	0	0	0	498
10	0	0	0	0	611
11	0	0	0	0	547
12	0	0	0	0	519
13	0	0	0	0	491
14	0	0	0	0	539
15	0	0	0	0	498
0	0	0	0	0	527
1	0	0	0	0	510
2	0	0	0	0	556
3	0	0	0	0	479
4	0	0	0	0	569
5	0	0	0	0	583
6	0	0	0	0	490
7	0	0	0	0	505
8	0	0	0	0	525
9	0	0	0	0	495
10	0	0	0	0	585
11	0	0	0	0	507
12	0	0	0	0	629
13	0	0	0	0	500
14	0	0	0	0	509
15	0	0	0	0	526
0	0	0	0	0	528
1	0	0	0	0	494
2	0	0	0	0	511
3	0	0	0	0	580
4	0	0	0	0	497
5	0	0	0	0	508
6	0	0	0	0	581
7	0	0	0	0	518
8	0	0	0	0	500
9	0	0	0	0	511
10	0	0	0	0	510
11	0	0	0	0	550
12	0	0	0	0	470
13	0	0	0	0	586
14	0	0	0	0	494
15	0	0	0	0	515
0	0	0	0	0	520
1	0	0	0	0	517
2	0	0	0	0	491
3	0	0	0	0	530
4	0	0	0	0	532
5	0	0	0	0	496
6	0	0	0	0	557
7	0	0	0	0	526
8	0	0	0	0	497
9	0	0	0	0	524
10	0	0	0	0	506
11	0	0	0	0	499
12	0	0	0	0	542
13	0	0	0	0	507
14	0	0	0	0	488
15	0	0	0	0	551
0	0	0	0	0	516
1	0	0	0	0	510
2	0	0	0	0	508
3	0	0	0	0	517
4	0	0	0	0	524
5	0	0	0	0	513
6	0	0	0	0	515
7	0	0	0	0	525
8	0	0	0	0	501
9	0	0	0	0	530
10	0	0	0	0	496
11	0	0	0	0	512
12	0	0	0	0	510
13	0	0	0	0	512
14	0	0	0	0	514
15	0	0	0	0	528
0	0	0	0	0	512
1	0	0	0	0	502
2	0	0	0	0	532
3	0	0	0	0	517
4	0	0	0	0	497
5	0	0	0	0	522
6	0	0	0	0	503
7	0	0	0	0	520
8	0	0	0	0	511
9	0	0	0	0	524
10	0	0	0	0	515
11	0	0	0	0	482
12	0	0	0	0	570
13	0	0	0	0	461
14	0	0	0	0	496
15	0	0	0	0	539
0	0	0	0	0	506
1	0	0	0	0	504
2	0	0	0	0	527
3	0	0	0	0	519
4	0	0	0	0	527
5	0	0	0	0	496
6	0	0	0	0	511
7	0	0	0	0	508
8	0	0	0	0	523
9	0	0	0	0	509
10	0	0	0	0	510
11	0	0	0	0	514
12	0	0	0	0	515
13	0	0	0	0	517
14	0	0	0	0	512
15	0	0	0	0	509
0	0	0	0	0	503
1	0	0	0	0	550
2	0	0	0	0	520
3	0	0	0	0	518
4	0	0	0	0	510
5	0	0	0	0	525
6	0	0	0	0	514
7	0	0	0	0	520
8	0	0	0	0	510
9	0	0	0	0	506
10	0	0	0	0	510
11	0	0	0	0	512
12	0	0	0	0	513
13	0	0	0	0	533
14	0	0	0	0	504
15	0	0	0	0	551
0	0	0	0	0	515
1	0	0	0	0	483
2	0	0	0	0	507
3	0	0	0	0	483
4	0	0	0	0	523
5	0	0	0	0	501
6	0	0	0	0	537
7	0	0	0	0	549
8	0	0	0	0	486
9	0	0	0	0	537
10	0	0	0	0	516
11	0	0	0	0	522
12	0	0	0	0	520
13	0	0	0	0	451
14	0	0	0	0	547
15	0	0	0	0	528
0	0	0	0	0	524
1	0	0	0	0	524
2	0	0	0	0	541
3	0	0	0	0	491
4	0	0	0	0	484
5	0	0	0	0	487
6	0	0	0	0	494
7	0	0	0	0	515
8	0	0	0	0	448
9	0	0	0	0	556
10	0	0	0	0	500
11	0	0	0	0	531
12	0	0	0	0	508
13	0	0	0	0	535
14	0	0	0	0	518
15	0	0	0	0	527
0	0	0	0	0	502
1	0	0	0	0	502
2	0	0	0	0	513
3	0	0	0	0	518
4	0	0	0	0	503
5	0	0	0	0	515
6	0	0	0	0	487
7	0	0	0	0	487
8	0	0	0	0	508
9	0	0	0	0	537
10	0	0	0	0	485
11	0	0	0	0	531
12	0	0	0	0	509
13	0	0	0	0	543
14	0	0	0	0	491
15	0	0	0	0	565
0	0	0	0	0	470
1	0	0	0	0	532
2	0	0	0	0	547
3	0	0	0	0	472
4	0	0	0	0	511
5	0	0	0	0	560
6	0	0	0	0	544
7	0	0	0	0	456
8	0	0	0	0	560
9	0	0	0	0	481
10	0	0	0	0	587
11	0	0	0	0	489
12	0	0	0	0	472
13	0	0	0	0	538
14	0	0	0	0	526
15	0	0	0	0	550
0	0	0	0	0	499
1	0	0	0	0	552
2	0	0	0	0	318
3	0	0	0	0	652
4	0	0	0	0	455
5	0	0	0	0	494
6	0	0	0	0	484
7	0	0	0	0	371
8	0	0	0	0	665
9	0	0	0	0	496
10	0	0	0	0	398
11	0	0	0	0	817
12	0	0	0	0	417
13	0	0	0	0	350
14	0	0	0	0	624
15	0	0	0	0	560
0	0	0	0	0	427
1	0	0	0	0	460
2	0	0	0	0	305
3	0	0	0	0	665
4	0	0	0	0	436
5	0	0	0	0	391
6	0	0	0	0	703
7	0	0	0	0	483
8	0	0	0	0	195
9	0	0	0	0	456
10	0	0	0	0	585
11	0	0	0	0	196
12	0	0	0	0	664
13	0	0	0	0	815
14	0	0	0	0	403
15	0	0	0	0	769
0	0	0	0	0	162
1	0	0	0	0	739
2	0	0	0	0	106
3	0	0	0	0	752
4	0	0	0	0	261
5	0	0	0	0	456
6	0	0	0	0	469
7	0	0	0	0	408
8	0	0	0	0	384
9	0	0	0	0	233
10	0	0	0	0	663
11	0	0	0	0	327
12	0	0	0	0	620
13	0	0	0	0	584
14	0	0	0	0	442
15	0	0	0	0	507
0	0	0	0	0	431
1	0	0	0	0	503
2	0	0	0	0	337
3	0	0	0	0	571
4	0	0	0	0	495
5	0	0	0	0	882
